Time [sec]		Acceleration [m/sec2]	Velocity [m/sec] 	Displacement [m] 
0.00000   		0.00003         	0.00000          	0.00000          
0.01000   		0.00019         	0.00000          	0.00000          
0.02000   		0.00069         	0.00001          	0.00000          
0.03000   		0.00164         	0.00002          	0.00000          
0.04000   		0.00298         	0.00004          	0.00000          
0.05000   		0.00444         	0.00008          	0.00000          
0.06000   		0.00572         	0.00013          	0.00000          
0.07000   		0.00660         	0.00019          	0.00000          
0.08000   		0.00700         	0.00026          	0.00001          
0.09000   		0.00695         	0.00033          	0.00001          
0.10000   		0.00657         	0.00040          	0.00001          
0.11000   		0.00597         	0.00046          	0.00002          
0.12000   		0.00533         	0.00051          	0.00002          
0.13000   		0.00476         	0.00056          	0.00003          
0.14000   		0.00430         	0.00061          	0.00003          
0.15000   		0.00386         	0.00065          	0.00004          
0.16000   		0.00337         	0.00069          	0.00005          
0.17000   		0.00281         	0.00072          	0.00005          
0.18000   		0.00203         	0.00074          	0.00006          
0.19000   		0.00080         	0.00076          	0.00007          
0.20000   		-0.00078        	0.00076          	0.00008          
0.21000   		-0.00207        	0.00074          	0.00008          
0.22000   		-0.00236        	0.00072          	0.00009          
0.23000   		-0.00158        	0.00070          	0.00010          
0.24000   		-0.00044        	0.00069          	0.00010          
0.25000   		0.00035         	0.00069          	0.00011          
0.26000   		0.00061         	0.00069          	0.00012          
0.27000   		0.00032         	0.00070          	0.00012          
0.28000   		-0.00065        	0.00070          	0.00013          
0.29000   		-0.00224        	0.00068          	0.00014          
0.30000   		-0.00408        	0.00065          	0.00015          
0.31000   		-0.00568        	0.00060          	0.00015          
0.32000   		-0.00688        	0.00054          	0.00016          
0.33000   		-0.00795        	0.00047          	0.00016          
0.34000   		-0.00909        	0.00038          	0.00017          
0.35000   		-0.00980        	0.00029          	0.00017          
0.36000   		-0.00962        	0.00019          	0.00017          
0.37000   		-0.00918        	0.00010          	0.00017          
0.38000   		-0.00973        	0.00000          	0.00017          
0.39000   		-0.01169        	-0.00011         	0.00017          
0.40000   		-0.01430        	-0.00024         	0.00017          
0.41000   		-0.01646        	-0.00039         	0.00017          
0.42000   		-0.01744        	-0.00056         	0.00016          
0.43000   		-0.01687        	-0.00073         	0.00016          
0.44000   		-0.01467        	-0.00089         	0.00015          
0.45000   		-0.01120        	-0.00102         	0.00014          
0.46000   		-0.00718        	-0.00111         	0.00013          
0.47000   		-0.00337        	-0.00116         	0.00012          
0.48000   		-0.00057        	-0.00118         	0.00011          
0.49000   		0.00002         	-0.00119         	0.00009          
0.50000   		-0.00299        	-0.00120         	0.00008          
0.51000   		-0.00998        	-0.00127         	0.00007          
0.52000   		-0.01888        	-0.00141         	0.00006          
0.53000   		-0.02510        	-0.00163         	0.00004          
0.54000   		-0.02457        	-0.00188         	0.00002          
0.55000   		-0.01762        	-0.00209         	0.00000          
0.56000   		-0.00865        	-0.00222         	-0.00002         
0.57000   		-0.00218        	-0.00227         	-0.00004         
0.58000   		-0.00018        	-0.00229         	-0.00006         
0.59000   		-0.00257        	-0.00230         	-0.00009         
0.60000   		-0.00936        	-0.00236         	-0.00011         
0.61000   		-0.02113        	-0.00251         	-0.00013         
0.62000   		-0.03680        	-0.00280         	-0.00016         
0.63000   		-0.05241        	-0.00325         	-0.00019         
0.64000   		-0.06320        	-0.00383         	-0.00022         
0.65000   		-0.06585        	-0.00447         	-0.00027         
0.66000   		-0.05979        	-0.00510         	-0.00031         
0.67000   		-0.04762        	-0.00564         	-0.00037         
0.68000   		-0.03344        	-0.00604         	-0.00043         
0.69000   		-0.02089        	-0.00631         	-0.00049         
0.70000   		-0.01247        	-0.00648         	-0.00055         
0.71000   		-0.00899        	-0.00659         	-0.00062         
0.72000   		-0.00944        	-0.00668         	-0.00068         
0.73000   		-0.01258        	-0.00679         	-0.00075         
0.74000   		-0.01799        	-0.00694         	-0.00082         
0.75000   		-0.02539        	-0.00716         	-0.00089         
0.76000   		-0.03345        	-0.00745         	-0.00096         
0.77000   		-0.03957        	-0.00782         	-0.00104         
0.78000   		-0.04175        	-0.00823         	-0.00112         
0.79000   		-0.04030        	-0.00864         	-0.00120         
0.80000   		-0.03692        	-0.00902         	-0.00129         
0.81000   		-0.03284        	-0.00937         	-0.00138         
0.82000   		-0.02855        	-0.00968         	-0.00148         
0.83000   		-0.02465        	-0.00994         	-0.00158         
0.84000   		-0.02120        	-0.01017         	-0.00168         
0.85000   		-0.01648        	-0.01036         	-0.00178         
0.86000   		-0.00868        	-0.01049         	-0.00189         
0.87000   		0.00107         	-0.01052         	-0.00199         
0.88000   		0.01019         	-0.01047         	-0.00210         
0.89000   		0.01761         	-0.01033         	-0.00220         
0.90000   		0.02242         	-0.01013         	-0.00230         
0.91000   		0.02197         	-0.00991         	-0.00240         
0.92000   		0.01413         	-0.00973         	-0.00250         
0.93000   		-0.00077        	-0.00966         	-0.00260         
0.94000   		-0.02225        	-0.00978         	-0.00269         
0.95000   		-0.05131        	-0.01014         	-0.00279         
0.96000   		-0.08633        	-0.01083         	-0.00290         
0.97000   		-0.12027        	-0.01186         	-0.00301         
0.98000   		-0.14620        	-0.01320         	-0.00314         
0.99000   		-0.16180        	-0.01474         	-0.00328         
1.00000   		-0.16483        	-0.01637         	-0.00343         
1.01000   		-0.15133        	-0.01795         	-0.00360         
1.02000   		-0.12306        	-0.01932         	-0.00379         
1.03000   		-0.08976        	-0.02039         	-0.00399         
1.04000   		-0.06102        	-0.02114         	-0.00420         
1.05000   		-0.04144        	-0.02165         	-0.00441         
1.06000   		-0.03359        	-0.02203         	-0.00463         
1.07000   		-0.03882        	-0.02239         	-0.00485         
1.08000   		-0.05239        	-0.02285         	-0.00508         
1.09000   		-0.06276        	-0.02342         	-0.00531         
1.10000   		-0.06054        	-0.02404         	-0.00555         
1.11000   		-0.04504        	-0.02457         	-0.00579         
1.12000   		-0.02078        	-0.02490         	-0.00604         
1.13000   		0.00457         	-0.02498         	-0.00629         
1.14000   		0.01761         	-0.02487         	-0.00654         
1.15000   		0.00604         	-0.02475         	-0.00678         
1.16000   		-0.02992        	-0.02487         	-0.00703         
1.17000   		-0.07974        	-0.02542         	-0.00728         
1.18000   		-0.13323        	-0.02648         	-0.00754         
1.19000   		-0.18144        	-0.02805         	-0.00781         
1.20000   		-0.21014        	-0.03001         	-0.00810         
1.21000   		-0.19948        	-0.03206         	-0.00841         
1.22000   		-0.13379        	-0.03373         	-0.00874         
1.23000   		-0.01606        	-0.03447         	-0.00909         
1.24000   		0.12424         	-0.03393         	-0.00943         
1.25000   		0.24047         	-0.03211         	-0.00976         
1.26000   		0.29152         	-0.02945         	-0.01007         
1.27000   		0.26142         	-0.02669         	-0.01035         
1.28000   		0.16426         	-0.02456         	-0.01060         
1.29000   		0.03785         	-0.02355         	-0.01084         
1.30000   		-0.06785        	-0.02370         	-0.01108         
1.31000   		-0.10797        	-0.02458         	-0.01132         
1.32000   		-0.06025        	-0.02542         	-0.01157         
1.33000   		0.06823         	-0.02538         	-0.01183         
1.34000   		0.24760         	-0.02380         	-0.01207         
1.35000   		0.43571         	-0.02038         	-0.01229         
1.36000   		0.58470         	-0.01528         	-0.01247         
1.37000   		0.65170         	-0.00910         	-0.01260         
1.38000   		0.61559         	-0.00276         	-0.01266         
1.39000   		0.48024         	0.00272          	-0.01265         
1.40000   		0.26117         	0.00643          	-0.01261         
1.41000   		-0.01732        	0.00764          	-0.01253         
1.42000   		-0.30783        	0.00602          	-0.01246         
1.43000   		-0.53573        	0.00180          	-0.01242         
1.44000   		-0.62041        	-0.00398         	-0.01243         
1.45000   		-0.51259        	-0.00964         	-0.01250         
1.46000   		-0.23042        	-0.01336         	-0.01262         
1.47000   		0.13278         	-0.01385         	-0.01276         
1.48000   		0.44842         	-0.01094         	-0.01289         
1.49000   		0.61747         	-0.00561         	-0.01297         
1.50000   		0.61118         	0.00053          	-0.01299         
1.51000   		0.46139         	0.00589          	-0.01296         
1.52000   		0.22309         	0.00932          	-0.01288         
1.53000   		-0.04434        	0.01021          	-0.01278         
1.54000   		-0.27124        	0.00863          	-0.01269         
1.55000   		-0.38688        	0.00534          	-0.01262         
1.56000   		-0.35231        	0.00165          	-0.01258         
1.57000   		-0.18181        	-0.00102         	-0.01258         
1.58000   		0.06527         	-0.00161         	-0.01260         
1.59000   		0.30921         	0.00026          	-0.01260         
1.60000   		0.46829         	0.00415          	-0.01258         
1.61000   		0.46988         	0.00884          	-0.01252         
1.62000   		0.27534         	0.01257          	-0.01241         
1.63000   		-0.08872        	0.01350          	-0.01228         
1.64000   		-0.52786        	0.01042          	-0.01215         
1.65000   		-0.91190        	0.00322          	-0.01208         
1.66000   		-1.12531        	-0.00697         	-0.01210         
1.67000   		-1.11856        	-0.01818         	-0.01222         
1.68000   		-0.92631        	-0.02841         	-0.01246         
1.69000   		-0.63205        	-0.03620         	-0.01278         
1.70000   		-0.32008        	-0.04096         	-0.01317         
1.71000   		-0.06053        	-0.04286         	-0.01359         
1.72000   		0.09154         	-0.04271         	-0.01402         
1.73000   		0.11311         	-0.04169         	-0.01445         
1.74000   		0.02528         	-0.04099         	-0.01486         
1.75000   		-0.12295        	-0.04148         	-0.01527         
1.76000   		-0.27680        	-0.04348         	-0.01569         
1.77000   		-0.38131        	-0.04677         	-0.01614         
1.78000   		-0.39091        	-0.05063         	-0.01663         
1.79000   		-0.29300        	-0.05405         	-0.01715         
1.80000   		-0.11676        	-0.05610         	-0.01771         
1.81000   		0.07991         	-0.05629         	-0.01827         
1.82000   		0.22676         	-0.05475         	-0.01883         
1.83000   		0.26141         	-0.05231         	-0.01936         
1.84000   		0.16041         	-0.05020         	-0.01987         
1.85000   		-0.03833        	-0.04959         	-0.02037         
1.86000   		-0.24850        	-0.05103         	-0.02087         
1.87000   		-0.37678        	-0.05415         	-0.02140         
1.88000   		-0.36071        	-0.05784         	-0.02196         
1.89000   		-0.19015        	-0.06059         	-0.02255         
1.90000   		0.08566         	-0.06112         	-0.02316         
1.91000   		0.37830         	-0.05880         	-0.02376         
1.92000   		0.60616         	-0.05387         	-0.02433         
1.93000   		0.72820         	-0.04720         	-0.02484         
1.94000   		0.74253         	-0.03985         	-0.02527         
1.95000   		0.66809         	-0.03280         	-0.02563         
1.96000   		0.53500         	-0.02678         	-0.02593         
1.97000   		0.38905         	-0.02216         	-0.02617         
1.98000   		0.29128         	-0.01876         	-0.02638         
1.99000   		0.29884         	-0.01581         	-0.02655         
2.00000   		0.43918         	-0.01212         	-0.02669         
2.01000   		0.69087         	-0.00647         	-0.02679         
2.02000   		0.97612         	0.00187          	-0.02681         
2.03000   		1.17716         	0.01263          	-0.02674         
2.04000   		1.18610         	0.02445          	-0.02656         
2.05000   		0.96570         	0.03521          	-0.02626         
2.06000   		0.56823         	0.04288          	-0.02586         
2.07000   		0.09348         	0.04619          	-0.02541         
2.08000   		-0.36345        	0.04484          	-0.02495         
2.09000   		-0.72903        	0.03938          	-0.02453         
2.10000   		-0.95013        	0.03098          	-0.02418         
2.11000   		-1.00179        	0.02122          	-0.02391         
2.12000   		-0.89456        	0.01174          	-0.02375         
2.13000   		-0.66937        	0.00392          	-0.02367         
2.14000   		-0.38745        	-0.00137         	-0.02366         
2.15000   		-0.11979        	-0.00390         	-0.02369         
2.16000   		0.07226         	-0.00414         	-0.02373         
2.17000   		0.15812         	-0.00299         	-0.02377         
2.18000   		0.13765         	-0.00151         	-0.02379         
2.19000   		0.02661         	-0.00069         	-0.02380         
2.20000   		-0.13945        	-0.00125         	-0.02381         
2.21000   		-0.29048        	-0.00340         	-0.02383         
2.22000   		-0.34531        	-0.00658         	-0.02388         
2.23000   		-0.27797        	-0.00970         	-0.02396         
2.24000   		-0.15730        	-0.01187         	-0.02407         
2.25000   		-0.10548        	-0.01319         	-0.02420         
2.26000   		-0.21184        	-0.01477         	-0.02434         
2.27000   		-0.47560        	-0.01821         	-0.02450         
2.28000   		-0.80472        	-0.02461         	-0.02471         
2.29000   		-1.05923        	-0.03393         	-0.02500         
2.30000   		-1.11734        	-0.04481         	-0.02540         
2.31000   		-0.92702        	-0.05504         	-0.02590         
2.32000   		-0.51678        	-0.06226         	-0.02649         
2.33000   		0.01911         	-0.06474         	-0.02713         
2.34000   		0.54116         	-0.06194         	-0.02776         
2.35000   		0.89914         	-0.05474         	-0.02835         
2.36000   		0.98733         	-0.04531         	-0.02885         
2.37000   		0.79592         	-0.03639         	-0.02926         
2.38000   		0.42003         	-0.03031         	-0.02959         
2.39000   		0.01488         	-0.02814         	-0.02988         
2.40000   		-0.27071        	-0.02942         	-0.03016         
2.41000   		-0.34311        	-0.03249         	-0.03047         
2.42000   		-0.18693        	-0.03514         	-0.03081         
2.43000   		0.13636         	-0.03539         	-0.03117         
2.44000   		0.51976         	-0.03211         	-0.03151         
2.45000   		0.85058         	-0.02526         	-0.03180         
2.46000   		1.02772         	-0.01587         	-0.03200         
2.47000   		0.97335         	-0.00586         	-0.03211         
2.48000   		0.66545         	0.00233          	-0.03213         
2.49000   		0.16182         	0.00647          	-0.03208         
2.50000   		-0.42104        	0.00517          	-0.03202         
2.51000   		-0.95271        	-0.00170         	-0.03199         
2.52000   		-1.32578        	-0.01309         	-0.03206         
2.53000   		-1.47912        	-0.02711         	-0.03226         
2.54000   		-1.40304        	-0.04152         	-0.03261         
2.55000   		-1.12477        	-0.05416         	-0.03309         
2.56000   		-0.69234        	-0.06325         	-0.03368         
2.57000   		-0.17563        	-0.06759         	-0.03434         
2.58000   		0.32876         	-0.06682         	-0.03501         
2.59000   		0.71964         	-0.06158         	-0.03566         
2.60000   		0.93219         	-0.05332         	-0.03624         
2.61000   		0.95526         	-0.04388         	-0.03672         
2.62000   		0.81426         	-0.03504         	-0.03712         
2.63000   		0.55374         	-0.02820         	-0.03743         
2.64000   		0.24137         	-0.02422         	-0.03769         
2.65000   		-0.03454        	-0.02319         	-0.03792         
2.66000   		-0.19995        	-0.02436         	-0.03816         
2.67000   		-0.22956        	-0.02651         	-0.03841         
2.68000   		-0.14104        	-0.02836         	-0.03869         
2.69000   		0.02742         	-0.02893         	-0.03898         
2.70000   		0.22375         	-0.02767         	-0.03926         
2.71000   		0.38934         	-0.02461         	-0.03952         
2.72000   		0.48017         	-0.02026         	-0.03975         
2.73000   		0.48245         	-0.01545         	-0.03993         
2.74000   		0.41140         	-0.01098         	-0.04006         
2.75000   		0.30534         	-0.00739         	-0.04015         
2.76000   		0.22056         	-0.00476         	-0.04021         
2.77000   		0.21164         	-0.00260         	-0.04025         
2.78000   		0.30045         	-0.00004         	-0.04026         
2.79000   		0.46668         	0.00379          	-0.04024         
2.80000   		0.66371         	0.00945          	-0.04018         
2.81000   		0.83685         	0.01695          	-0.04005         
2.82000   		0.94368         	0.02585          	-0.03984         
2.83000   		0.97381         	0.03544          	-0.03953         
2.84000   		0.94727         	0.04504          	-0.03913         
2.85000   		0.89271         	0.05424          	-0.03863         
2.86000   		0.83116         	0.06286          	-0.03804         
2.87000   		0.77311         	0.07089          	-0.03737         
2.88000   		0.71425         	0.07832          	-0.03663         
2.89000   		0.63174         	0.08505          	-0.03581         
2.90000   		0.49869         	0.09070          	-0.03493         
2.91000   		0.30547         	0.09473          	-0.03400         
2.92000   		0.06100         	0.09656          	-0.03304         
2.93000   		-0.21335        	0.09580          	-0.03208         
2.94000   		-0.46811        	0.09239          	-0.03114         
2.95000   		-0.61665        	0.08696          	-0.03024         
2.96000   		-0.58293        	0.08097          	-0.02940         
2.97000   		-0.36929        	0.07621          	-0.02861         
2.98000   		-0.06467        	0.07404          	-0.02787         
2.99000   		0.20570         	0.07474          	-0.02712         
3.00000   		0.33711         	0.07746          	-0.02636         
